 P (MPa)  rho (kmol/m^3)       c_s (m/s)    V (cm^3/mol)
 100     +2.81040000e+01 +1.39335000e+03 +3.55821235e+01
 150     +3.71340000e+01 +1.54277000e+03 +2.69294986e+01
 200     +4.44970000e+01 +1.67474000e+03 +2.24734252e+01
 250     +5.07550000e+01 +1.79345000e+03 +1.97024924e+01
 300     +5.61870000e+01 +1.90157000e+03 +1.77977112e+01
 350     +6.09910000e+01 +2.00102000e+03 +1.63958617e+01
 400     +6.52930000e+01 +2.09324000e+03 +1.53155775e+01
 450     +6.91840000e+01 +2.17931000e+03 +1.44542091e+01
 500     +7.27450000e+01 +2.26010000e+03 +1.37466493e+01
 550     +7.60480000e+01 +2.33629000e+03 +1.31495897e+01
 600     +7.91290000e+01 +2.40844000e+03 +1.26375918e+01
 650     +8.19890000e+01 +2.47701000e+03 +1.21967581e+01
 700     +8.46990000e+01 +2.54237000e+03 +1.18065148e+01
 750     +8.72680000e+01 +2.60485000e+03 +1.14589540e+01
 800     +8.96670000e+01 +2.66473000e+03 +1.11523749e+01
 850     +9.19880000e+01 +2.72224000e+03 +1.08709832e+01
 900     +9.41990000e+01 +2.77758000e+03 +1.06158239e+01
 950     +9.62640000e+01 +2.83094000e+03 +1.03880994e+01
 1000    +9.82640000e+01 +2.88246000e+03 +1.01766669e+01